NEH,px_t,RMSE,fNatIsotopes0,fNatIsotopes1,fNatIsotopes2,fNatIsotopes3,fNatIsotopes4,fNatIsotopes5,current_Exp_isotope_distribution_t0[0],current_Exp_isotope_distribution_t0[1],current_Exp_isotope_distribution_t0[2],current_Exp_isotope_distribution_t0[3],current_Exp_isotope_distribution_t0[4],current_Exp_isotope_distribution_t0[5],fLabIsotopes[0],fLabIsotopes[1],fLabIsotopes[2],fLabIsotopes[3],fLabIsotopes[4],fLabIsotopes[5],current_Exp_isotope_distribution[0],current_Exp_isotope_distribution[1],current_Exp_isotope_distribution[2],current_Exp_isotope_distribution[3],current_Exp_isotope_distribution[4],current_Exp_isotope_distribution[5],NumberOfHydrogens,PeptideSeq,SeqMass,Charge,Exp_time
32,0.03855948,0.0896638487767281,0.37234,0.33714,0.18381,0.07417,0.02408,0.00658,0.360729776103449,0.383004827937098,0.195215368134573,0.0472392365968832,0.0138107912279967,0,0.1057718,0.2315621,0.2595862,0.1983911,0.1160508,0.05529228,0.276556504812441,0.312314414706788,0.218210692651589,0.125134437539209,0.0569036531235187,0.0108802971664544,107,LNQVcATHQHFESR,576.27411,3,1
20,0.03855948,0.079277224286902,0.35742,0.35308,0.18907,0.07193,0.02163,0.00544,0.347498893988283,0.45224710665318,0.177484869817731,0.0227691295408056,0,0,0.1627694,0.2913949,0.2648743,0.1629612,0.0763119,0.02899777,0.315693799711243,0.329439274694499,0.270517450075241,0.0843494755190167,0,0,133,IFLLTNNNLLLADQK,865.49597,2,1
32,0.03855948,0.0784077383838064,0.37234,0.33714,0.18381,0.07417,0.02408,0.00658,0.381784582656268,0.372088425671151,0.171172035772603,0.0690696726546217,0.00435424320406296,0.00153104004129391,0.1057718,0.2315621,0.2595862,0.1983911,0.1160508,0.05529228,0.248678702599524,0.301981038184348,0.247223605882055,0.120187382633263,0.0464505274605487,0.0354787432402624,107,LNQVcATHQHFESR,432.4574,4,1
30,0.03855948,0.111625327226482,0.38965,0.35189,0.17428,0.06173,0.01736,0.0041,0.404584175077194,0.32755962977301,0.180607798288907,0.0639726872550163,0.0179946776068715,0.00528103199900154,0.1197472,0.2522659,0.2675332,0.1904946,0.1024705,0.04442166,0.332630844173595,0.332385525022036,0.186751391953287,0.0783363334036889,0.0421398548768309,0.0277560505705623,118,LLQSNPVLEAFGNAK,800.93829,2,1
32,0.04479649,0.08568231440444,0.37234,0.33714,0.18381,0.07417,0.02408,0.00658,0.360729776103449,0.383004827937098,0.195215368134573,0.0472392365968832,0.0138107912279967,0,0.08588309,0.206691,0.2528639,0.2095716,0.1322391,0.06766839,0.206503350087523,0.331249244967201,0.242975919805618,0.112180157054463,0.0789584410026819,0.0281328870825134,107,LNQVcATHQHFESR,576.27411,3,2
20,0.04479649,0.0883092346204802,0.35742,0.35308,0.18907,0.07193,0.02163,0.00544,0.347498893988283,0.45224710665318,0.177484869817731,0.0227691295408056,0,0,0.1429005,0.2752411,0.2677723,0.1754898,0.08716962,0.03500308,0.259765345403678,0.402519248000762,0.244276907637178,0.0703987038464684,0.0230397951119143,0,133,IFLLTNNNLLLADQK,865.49597,2,2
32,0.04479649,0.0697998200381553,0.37234,0.33714,0.18381,0.07417,0.02408,0.00658,0.381784582656268,0.372088425671151,0.171172035772603,0.0690696726546217,0.00435424320406296,0.00153104004129391,0.08588309,0.206691,0.2528639,0.2095716,0.1322391,0.06766839,0.215371296847112,0.276500378343063,0.217606727027453,0.15940270582246,0.0707743013877839,0.0603445905721287,107,LNQVcATHQHFESR,432.4574,4,2
30,0.04479649,0.111226735649833,0.38965,0.35189,0.17428,0.06173,0.01736,0.0041,0.404584175077194,0.32755962977301,0.180607798288907,0.0639726872550163,0.0179946776068715,0.00528103199900154,0.09850474,0.2275914,0.2635366,0.2040162,0.1188378,0.05557553,0.293559069232997,0.334293483452537,0.223004453989949,0.0741452870941797,0.0431901925705475,0.031807513659791,118,LLQSNPVLEAFGNAK,800.93829,2,2
32,0.04580533,0.0688851216676828,0.37234,0.33714,0.18381,0.07417,0.02408,0.00658,0.360729776103449,0.383004827937098,0.195215368134573,0.0472392365968832,0.0138107912279967,0,0.08302693,0.202759,0.2514462,0.2110538,0.1347661,0.06973954,0.18040016672288,0.311539649297635,0.231140436903351,0.155004310802723,0.10326195374001,0.0186534825334009,107,LNQVcATHQHFESR,576.27411,3,3
20,0.04580533,0.0508062915684938,0.35742,0.35308,0.18907,0.07193,0.02163,0.00544,0.347498893988283,0.45224710665318,0.177484869817731,0.0227691295408056,0,0,0.1399115,0.2725822,0.2680256,0.1774106,0.08894654,0.03602907,0.218901100277128,0.3356017415735,0.268018519836742,0.129159038424292,0.0483195998883376,0,133,IFLLTNNNLLLADQK,865.49597,2,3
32,0.04580533,0.0731855986515519,0.37234,0.33714,0.18381,0.07417,0.02408,0.00658,0.381784582656268,0.372088425671151,0.171172035772603,0.0690696726546217,0.00435424320406296,0.00153104004129391,0.08302693,0.202759,0.2514462,0.2110538,0.1347661,0.06973954,0.150160041490298,0.18240405729881,0.2189550534417,0.157097355517371,0.0795268872232716,0.211856605028549,107,LNQVcATHQHFESR,432.4574,4,3
30,0.04580533,0.111092165129859,0.38965,0.35189,0.17428,0.06173,0.01736,0.0041,0.404584175077194,0.32755962977301,0.180607798288907,0.0639726872550163,0.0179946776068715,0.00528103199900154,0.09543035,0.223658,0.262537,0.2059049,0.1214373,0.05746879,0.273406773130673,0.355130158617639,0.213629471433082,0.0776765195401906,0.0458127705736975,0.034344306704717,118,LLQSNPVLEAFGNAK,800.93829,2,3
32,0.04599918,0.0273452228194134,0.37234,0.33714,0.18381,0.07417,0.02408,0.00658,0.360729776103449,0.383004827937098,0.195215368134573,0.0472392365968832,0.0138107912279967,0,0.08248892,0.2020074,0.2511648,0.2113286,0.1352485,0.07013952,0.108630301827331,0.25483985738553,0.266562262682696,0.200545998825562,0.119692358356458,0.0497292209224241,107,LNQVcATHQHFESR,576.27411,3,6
20,0.04599918,0.0236376687494819,0.35742,0.35308,0.18907,0.07193,0.02163,0.00544,0.347498893988283,0.45224710665318,0.177484869817731,0.0227691295408056,0,0,0.1393442,0.2720706,0.268068,0.1777764,0.08928855,0.03622795,0.133659959189867,0.320542781099797,0.279616776868188,0.173079762933924,0.0851169862052346,0.00798373370299008,133,IFLLTNNNLLLADQK,865.49597,2,6
32,0.04599918,0.0222193347455218,0.37234,0.33714,0.18381,0.07417,0.02408,0.00658,0.381784582656268,0.372088425671151,0.171172035772603,0.0690696726546217,0.00435424320406296,0.00153104004129391,0.08248892,0.2020074,0.2511648,0.2113286,0.1352485,0.07013952,0.100880451828208,0.21129979399921,0.269182023616069,0.216111560018451,0.100757017025334,0.101769153512729,107,LNQVcATHQHFESR,432.4574,4,6
30,0.04599918,0.0685802698942925,0.38965,0.35189,0.17428,0.06173,0.01736,0.0041,0.404584175077194,0.32755962977301,0.180607798288907,0.0639726872550163,0.0179946776068715,0.00528103199900154,0.09485049,0.2229051,0.262335,0.2062585,0.1219349,0.05783521,0.222083001322796,0.285523627196676,0.245929961035093,0.16033619790401,0.0491534021756902,0.0369738103657349,118,LLQSNPVLEAFGNAK,800.93829,2,6
32,0.04599987,0.0251900652396036,0.37234,0.33714,0.18381,0.07417,0.02408,0.00658,0.360729776103449,0.383004827937098,0.195215368134573,0.0472392365968832,0.0138107912279967,0,0.08248693,0.2020045,0.2511636,0.2113294,0.1352502,0.07014091,0.116896976100419,0.228893186219373,0.283459047511658,0.201765999842387,0.109869911484302,0.0591148788418607,107,LNQVcATHQHFESR,576.27411,3,7
20,0.04599987,0.020018836724452,0.35742,0.35308,0.18907,0.07193,0.02163,0.00544,0.347498893988283,0.45224710665318,0.177484869817731,0.0227691295408056,0,0,0.1393421,0.2720686,0.268068,0.1777776,0.08928971,0.03622863,0.145611254265018,0.312170390419158,0.277840246435772,0.174745466056687,0.0692872589801973,0.0203453838431686,133,IFLLTNNNLLLADQK,865.49597,2,7
32,0.04599987,0.052364612325036,0.37234,0.33714,0.18381,0.07417,0.02408,0.00658,0.381784582656268,0.372088425671151,0.171172035772603,0.0690696726546217,0.00435424320406296,0.00153104004129391,0.08248693,0.2020045,0.2511636,0.2113294,0.1352502,0.07014091,0.108332817176191,0.191247778447793,0.223713279572304,0.197065142353767,0.0950605541320693,0.184580428317876,107,LNQVcATHQHFESR,432.4574,4,7
30,0.04599987,0.0588741587009261,0.38965,0.35189,0.17428,0.06173,0.01736,0.0041,0.404584175077194,0.32755962977301,0.180607798288907,0.0639726872550163,0.0179946776068715,0.00528103199900154,0.09484836,0.2229022,0.262334,0.2062596,0.1219366,0.05783648,0.195224501322788,0.27630821951265,0.238648204450299,0.136563612551674,0.076279570044871,0.0769758921177186,118,LLQSNPVLEAFGNAK,800.93829,2,7
32,0.046,0.0240095197802627,0.37234,0.33714,0.18381,0.07417,0.02408,0.00658,0.360729776103449,0.383004827937098,0.195215368134573,0.0472392365968832,0.0138107912279967,0,0.08248661,0.2020041,0.2511635,0.2113297,0.1352505,0.07014117,0.0958465985743406,0.25228655393239,0.266394580799508,0.210123137152796,0.114432340088577,0.060916789452389,107,LNQVcATHQHFESR,576.27411,3,9
20,0.046,0.0294052358764338,0.35742,0.35308,0.18907,0.07193,0.02163,0.00544,0.347498893988283,0.45224710665318,0.177484869817731,0.0227691295408056,0,0,0.1393417,0.2720683,0.2680681,0.1777779,0.08928998,0.03622878,0.143446773528771,0.334954891229692,0.245428563918237,0.181545669328984,0.0841492052932133,0.0104748967011024,133,IFLLTNNNLLLADQK,865.49597,2,9
32,0.046,0.0476781813095417,0.37234,0.33714,0.18381,0.07417,0.02408,0.00658,0.381784582656268,0.372088425671151,0.171172035772603,0.0690696726546217,0.00435424320406296,0.00153104004129391,0.08248661,0.2020041,0.2511635,0.2113297,0.1352505,0.07014117,0.0935078404732458,0.221311018975915,0.227939142726882,0.191208970290918,0.0935915773727455,0.172441450160294,107,LNQVcATHQHFESR,432.4574,4,9
30,0.046,0.0502831765837412,0.38965,0.35189,0.17428,0.06173,0.01736,0.0041,0.404584175077194,0.32755962977301,0.180607798288907,0.0639726872550163,0.0179946776068715,0.00528103199900154,0.094848,0.2229018,0.262334,0.2062599,0.121937,0.05783675,0.161547133738755,0.278468313342884,0.20815151610531,0.146979598098543,0.113625193226087,0.0912282454884199,118,LLQSNPVLEAFGNAK,800.93829,2,9
32,0.046,0.0263020830596932,0.37234,0.33714,0.18381,0.07417,0.02408,0.00658,0.360729776103449,0.383004827937098,0.195215368134573,0.0472392365968832,0.0138107912279967,0,0.08248661,0.2020041,0.2511635,0.2113297,0.1352505,0.07014117,0.105920004216886,0.233924373830203,0.28850924939592,0.180040942317166,0.135908778896977,0.0556966513428476,107,LNQVcATHQHFESR,576.27411,3,13
20,0.046,0.0191729488162636,0.35742,0.35308,0.18907,0.07193,0.02163,0.00544,0.347498893988283,0.45224710665318,0.177484869817731,0.0227691295408056,0,0,0.1393417,0.2720683,0.2680681,0.1777779,0.08928998,0.03622878,0.137667746140304,0.284857516842216,0.299308932666313,0.193173547966468,0.0706127731522918,0.0143794832324074,133,IFLLTNNNLLLADQK,865.49597,2,13
32,0.046,0.0374523804714196,0.37234,0.33714,0.18381,0.07417,0.02408,0.00658,0.381784582656268,0.372088425671151,0.171172035772603,0.0690696726546217,0.00435424320406296,0.00153104004129391,0.08248661,0.2020041,0.2511635,0.2113297,0.1352505,0.07014117,0.0985270262154269,0.208664907882306,0.257309835259639,0.185868198208502,0.100581298224285,0.149048734209842,107,LNQVcATHQHFESR,432.4574,4,13
30,0.046,0.0359710701558185,0.38965,0.35189,0.17428,0.06173,0.01736,0.0041,0.404584175077194,0.32755962977301,0.180607798288907,0.0639726872550163,0.0179946776068715,0.00528103199900154,0.094848,0.2229018,0.262334,0.2062599,0.121937,0.05783675,0.126846396598802,0.251488624886858,0.265908120982844,0.144927615768855,0.108605093367078,0.102224148395563,118,LLQSNPVLEAFGNAK,800.93829,2,13
32,0.046,0.0274859907429458,0.37234,0.33714,0.18381,0.07417,0.02408,0.00658,0.360729776103449,0.383004827937098,0.195215368134573,0.0472392365968832,0.0138107912279967,0,0.08248661,0.2020041,0.2511635,0.2113297,0.1352505,0.07014117,0.0976155541180863,0.250890710164444,0.276817024502663,0.179916389613553,0.140246931224935,0.0545133903763189,107,LNQVcATHQHFESR,576.27411,3,21
20,0.046,0.0166913405026807,0.35742,0.35308,0.18907,0.07193,0.02163,0.00544,0.347498893988283,0.45224710665318,0.177484869817731,0.0227691295408056,0,0,0.1393417,0.2720683,0.2680681,0.1777779,0.08928998,0.03622878,0.14031239460874,0.292802608078593,0.262812558794056,0.206304009573526,0.0780934737326692,0.0196749552124166,133,IFLLTNNNLLLADQK,865.49597,2,21
32,0.046,0.0348927883774212,0.37234,0.33714,0.18381,0.07417,0.02408,0.00658,0.381784582656268,0.372088425671151,0.171172035772603,0.0690696726546217,0.00435424320406296,0.00153104004129391,0.08248661,0.2020041,0.2511635,0.2113297,0.1352505,0.07014117,0.101170581124,0.277931221685223,0.245258155111993,0.215376054317153,0.104891812934531,0.0553721748270998,107,LNQVcATHQHFESR,432.4574,4,21
30,0.046,0.0246143573096067,0.38965,0.35189,0.17428,0.06173,0.01736,0.0041,0.404584175077194,0.32755962977301,0.180607798288907,0.0639726872550163,0.0179946776068715,0.00528103199900154,0.094848,0.2229018,0.262334,0.2062599,0.121937,0.05783675,0.100263400381705,0.210280842851399,0.235244536200141,0.201742412593206,0.153282104814988,0.0991867031585608,118,LLQSNPVLEAFGNAK,800.93829,2,21
32,0.046,0.0189425892343593,0.37234,0.33714,0.18381,0.07417,0.02408,0.00658,0.360729776103449,0.383004827937098,0.195215368134573,0.0472392365968832,0.0138107912279967,0,0.08248661,0.2020041,0.2511635,0.2113297,0.1352505,0.07014117,0.0997118318699435,0.232020321656343,0.270406343847261,0.222617830669065,0.118933892552724,0.0563097794046626,107,LNQVcATHQHFESR,576.27411,3,24
20,0.046,0.0216001718105596,0.35742,0.35308,0.18907,0.07193,0.02163,0.00544,0.347498893988283,0.45224710665318,0.177484869817731,0.0227691295408056,0,0,0.1393417,0.2720683,0.2680681,0.1777779,0.08928998,0.03622878,0.125534688503704,0.294335934777159,0.287488921081714,0.20731734739841,0.0744518864425545,0.0108712217964589,133,IFLLTNNNLLLADQK,865.49597,2,24
32,0.046,0.0189056509163856,0.37234,0.33714,0.18381,0.07417,0.02408,0.00658,0.381784582656268,0.372088425671151,0.171172035772603,0.0690696726546217,0.00435424320406296,0.00153104004129391,0.08248661,0.2020041,0.2511635,0.2113297,0.1352505,0.07014117,0.103965058063732,0.232119009685036,0.238682999607871,0.229088700847789,0.119172372260056,0.076971859535515,107,LNQVcATHQHFESR,432.4574,4,24
30,0.046,0.0395937215450571,0.38965,0.35189,0.17428,0.06173,0.01736,0.0041,0.404584175077194,0.32755962977301,0.180607798288907,0.0639726872550163,0.0179946776068715,0.00528103199900154,0.094848,0.2229018,0.262334,0.2062599,0.121937,0.05783675,0.141096872652258,0.270861050270477,0.253731513948824,0.138315915106302,0.121533293948696,0.0744613540734425,118,LLQSNPVLEAFGNAK,800.93829,2,24
32,0.046,0.0232313314295857,0.37234,0.33714,0.18381,0.07417,0.02408,0.00658,0.360729776103449,0.383004827937098,0.195215368134573,0.0472392365968832,0.0138107912279967,0,0.08248661,0.2020041,0.2511635,0.2113297,0.1352505,0.07014117,0.0662087247623656,0.237437247436353,0.265818222743485,0.244126500112626,0.136875420311675,0.0495338846334947,107,LNQVcATHQHFESR,576.27411,3,31
32,0.046,0.0144615122480789,0.37234,0.33714,0.18381,0.07417,0.02408,0.00658,0.381784582656268,0.372088425671151,0.171172035772603,0.0690696726546217,0.00435424320406296,0.00153104004129391,0.08248661,0.2020041,0.2511635,0.2113297,0.1352505,0.07014117,0.0743456559633072,0.207237506702859,0.25890842750555,0.23433120074404,0.131425352524667,0.0937518565595781,107,LNQVcATHQHFESR,432.4574,4,31
30,0.046,0.0199175754183544,0.38965,0.35189,0.17428,0.06173,0.01736,0.0041,0.404584175077194,0.32755962977301,0.180607798288907,0.0639726872550163,0.0179946776068715,0.00528103199900154,0.094848,0.2229018,0.262334,0.2062599,0.121937,0.05783675,0.106056554281559,0.246671993731134,0.265297915168562,0.179719227364983,0.114154582889039,0.0880997265647224,118,LLQSNPVLEAFGNAK,800.93829,2,31
